##TITLE=01_3
##JCAMP-DX=5.01  $$ Nicolet v. 521
##DATATYPE=INFRARED SPECTRUM
##ORIGIN=University Lausanne
##OWNER=Nicolet
##LONGDATE=2007/12/12
##TIME=07:47:06
##DATA PROCESSING=
Multiplied by a scalar
Converted from JCAMP
##XUNITS=1/CM
##YUNITS=ABSORBANCE
##FIRSTX=649.903687
##LASTX=3999.703857
##FIRSTY=0.120651
##MAXX=3999.703857
##MINX=649.903687
##MAXY=1.700984
##MINY=0.044709
##XFACTOR=1.000000
##YFACTOR=1.000000E-008
##NPOINTS=1738
##DELTAX=1.928498
##XYDATA=(X++(Y..Y))
649.904 12065057 12105141 12144390 12132629 12093093 12025096 11944881 
663.403 11905769 11947307 12114406 12251225 12042424 11700001 11436731 
676.903 11405702 11507667 11535514 11429255 11323461 11428233 11696701 
690.403 11860817 11769411 11508700 11276719 11175542 11193821 11327813 
703.902 11594439 11832025 11692780 11127072 10466094 9977160 9710833 9618995 
719.331 9654664 9760597 9819781 9780398 9771268 9975113 10406891 10988712 
734.759 11701025 12567122 13611114 14555171 14835766 14539872 14382695 
748.259 14674561 15290436 16029344 16540511 16496035 15990451 15305795 
761.758 14559123 13928625 13493145 12992373 12353590 11856833 11683608 
775.258 11801504 12076759 12369173 12650384 12984826 13366131 13707870 
788.758 14040053 14463806 14958665 15443942 15852566 16116147 16209015 
802.257 16155764 15974867 15660426 15236898 14762446 14281060 13833414 
815.757 13497987 13340731 13305376 13241911 13054661 12844139 12853025 
829.257 13335033 14498487 16151011 17438834 17925716 18485568 19742074 
842.756 20683108 19942352 17860536 15801048 14359745 13381816 12641850 
856.256 12086952 11739130 11564711 11518794 11584292 11685047 11667593 
869.756 11437701 11064161 10709870 10487788 10438839 10547858 10728513 
883.256 10932671 11206810 11529305 11809544 12085000 12431825 12767996 
896.755 13003829 13208404 13471198 13763013 13997567 14130627 14154847 
910.255 14093268 13998327 13928019 13963938 14133985 14354013 14605571 
923.755 14917757 15182579 15375325 15687174 16252320 17027172 17873320 
937.254 18670556 19364182 19909746 20272710 20472736 20558996 20595168 
950.754 20682726 20906690 21268068 21762400 22422390 23096276 23339158 
964.254 22800382 21633014 20307934 19184162 18417128 18062744 18101202 
977.753 18439038 18967774 19651012 20441188 21106578 21410872 21373278 
991.253 21156048 20844310 20409238 19825876 19173368 18601718 18215242 
1004.753 18038348 18083134 18399702 19047358 19945950 20785082 21265138 
1018.253 21468076 21722606 22135394 22588754 23025760 23482650 23989370 
1031.752 24561662 25253702 26100182 27041510 28001984 28959688 29902676 
1045.251 30742836 31452110 32254198 33444632 35167164 37417596 40086676 
1058.750 42937192 45580496 47595908 48837740 49521204 49931672 50232412 
1072.250 50482488 50744772 51120924 51713036 52621196 53876464 55415868 
1085.749 57176620 59223580 61640536 64157356 66136008 67244472 68020208 
1099.248 69209744 70865128 72585152 74146680 75578080 76860448 77891976 
1112.748 78742040 79587312 80396944 81042432 81638000 82493448 83879056 
1126.247 85851096 88129816 90254864 92047856 93734032 95490920 97242848 
1139.746 98818192 100220808 101711264 103264688 104333624 104470376 
1151.317 103932856 103534344 104005912 105443480 107240280 108671152 
1162.888 109417200 109419032 108876704 108103360 107117280 105775880 
1174.458 103910528 101471056 98614056 95261768 91364152 87387992 83795248 
1187.958 80669240 77799888 74820128 71536104 68006320 64407404 61035128 
1201.457 58184892 55983688 54415320 53452508 53169888 53654176 54709244 
1214.956 55773132 56365944 56484024 56444168 56564192 56973004 57593632 
1228.456 58304076 59065228 59875524 60682332 61367744 61830328 61995648 
1241.955 61684348 60669340 58990676 56993212 54997164 53208256 51854496 
1255.454 51075840 50536524 49517584 47890692 46293660 45087740 44204636 
1268.953 43509360 42766172 41763772 40562760 39321476 38076756 36775664 
1282.453 35436136 34199308 33148670 32211136 31339862 30579606 29924948 
1295.952 29336526 28829616 28473994 28305510 28245010 28120712 27764096 
1309.451 27165684 26435196 25557410 24678584 24199304 24203220 24414232 
1322.950 24591892 24482632 23913918 23184314 22810984 23082150 24141228 
1336.450 26330494 30268422 35084684 37395108 36126552 32445830 28071076 
1349.949 24512040 22408308 21436980 20959966 20757800 20896978 21061576 
1363.448 20520916 19663582 19242532 19199600 19474616 20190748 20952232 
1376.948 21389804 21922242 22639892 23414182 24298414 25014516 24809998 
1390.447 24152876 24062522 24866118 26002582 26124058 24772486 23021366 
1403.946 21341566 19344510 17500478 16284530 15512122 15081421 15166436 
1417.445 15779552 16296838 16549541 17402704 18944954 20987066 24049120 
1430.945 27841804 30815942 32843476 33846976 33685972 33949540 35431360 
1444.444 38061848 41435628 44042928 44027936 42753444 42057984 42174228 
1457.943 40663256 38255716 37281580 37203772 37207900 36907332 36959336 
1471.442 37883748 38990740 38422816 37213404 35961436 33967100 31196460 
1484.942 28929758 27891206 28111556 28693354 28999058 29087868 27522344 
1498.441 23139788 19163038 17055488 16416337 17181850 17166044 15062091 
1511.940 13578856 13038020 13331591 13864918 14603238 16053577 16890494 
1525.439 16804634 16155268 15426280 15458602 16160537 16332731 16170186 
1538.939 16828070 18249326 16837228 14255477 12731737 12473799 12940432 
1552.438 13545209 14288302 15147911 15381058 13671686 12552667 12127113 
1565.937 12027033 12297709 12624104 12591982 12902370 13933197 14408524 
1579.437 14035164 13854784 13782874 13705631 14093310 15242356 16436559 
1592.936 16550986 15375057 13794221 12789941 12602517 13029218 14031717 
1606.435 15934053 18485244 19992434 19621210 18544848 17393238 16170397 
1619.934 15730776 16272686 17061092 16938634 15934899 14601091 13776493 
1633.434 13870239 14909750 15329222 14929810 14972292 15480234 16358070 
1646.933 16862882 15945321 15353195 15336947 14322180 13274091 12988271 
1660.432 13574861 14887972 15861554 16429463 17300964 17827830 17179758 
1673.931 16451322 15841046 15588151 16029675 17030414 18363124 19016600 
1687.431 18902286 18791742 18826536 19379854 21060222 23681622 25340530 
1700.930 26147092 27062902 28751996 31116402 33594020 36812700 41308580 
1714.429 48041180 60634200 79732808 93828824 105464648 120184160 135574464 
1727.928 147931584 158148208 166333760 170098352 166944336 158656768 
1739.499 142795488 121507976 100135888 81122816 63734360 46172076 31825014 
1752.999 23870266 19597134 16345608 13833436 12100478 10426082 9143350 
1766.498 8633002 8722395 9175046 9208027 8184404 7231036 6849894 6765613 
1781.926 6552288 6222676 5947057 5936165 6443897 7217850 7274731 6787979 
1797.353 6460657 6386519 6227678 5744261 5355384 5326760 5540299 5628803 
1812.781 5321168 4952188 4791460 4741026 4793506 5064692 5441544 5702694 
1828.209 5944382 5914244 5383580 5014324 4981160 4974070 4995402 5399309 
1843.636 6081095 6134572 5522716 4929355 4586743 4470896 4487992 4583521 
1859.064 4670959 4683513 4747217 5128832 5915869 6371709 5756391 5016577 
1874.492 4678198 4610193 4623912 4643358 4710061 4827812 4960269 5157019 
1889.920 5258951 5157948 5122776 5100812 4941542 4821487 4832552 4905510 
1905.347 5036982 5268021 5426542 5305227 5134642 5217506 5506498 5697726 
1920.775 5784391 5799005 5524884 5203287 5092369 5117434 5178572 5215966 
1936.203 5229666 5323764 5621619 6014089 6122892 5926536 5697616 5570465 
1951.631 5572077 5653411 5706662 5683943 5665716 5687799 5770012 5981093 
1967.058 6137324 5994012 5775375 5705056 5725896 5754080 5770133 5765729 
1982.486 5742139 5747385 5842415 6009800 6188997 6230626 6012411 5774092 
1997.914 5698482 5685665 5655876 5641823 5666464 5694103 5680944 5648815 
2013.342 5688426 5861467 6018222 5952232 5791273 5714424 5696052 5687455 
2028.769 5680835 5680253 5688528 5694972 5713702 5784872 5883201 5899997 
2044.197 5827199 5763171 5736138 5727056 5726213 5729676 5733245 5739413 
2059.625 5763084 5816253 5900897 5937567 5863936 5783073 5772449 5794124 
2075.052 5808215 5812783 5816371 5824118 5839599 5864921 5904647 5947711 
2090.480 5950298 5910155 5886176 5891337 5896388 5896748 5902761 5920540 
2105.908 5946419 5962399 5962692 5969933 5993879 6006954 5989988 5959879 
2121.336 5940245 5939831 5954102 5969329 5973199 5970637 5975058 5989456 
2136.763 5996971 5986268 5967881 5949972 5937076 5934763 5942904 5955869 
2152.191 5965311 5964740 5960020 5962969 5979050 5999425 6006696 6007894 
2167.619 6019981 6034107 6034850 6027129 6025709 6029325 6027030 6021503 
2183.047 6024704 6041879 6060065 6062343 6056538 6059140 6066832 6069640 
2198.474 6068779 6063943 6051384 6040926 6039906 6042918 6047119 6054458 
2213.902 6065852 6077707 6088448 6097850 6109122 6124220 6135530 6145213 
2229.330 6158318 6170355 6182307 6199078 6218141 6230374 6239209 6258451 
2244.758 6281388 6292594 6299127 6316127 6340863 6359917 6371867 6388197 
2260.185 6416849 6452761 6478694 6487649 6496457 6520086 6546113 6558936 
2275.613 6568525 6580446 6592367 6604289 6616211 6628132 6640055 6651976 
2291.041 6663897 6675819 6687740 6699662 6711585 6723506 6735427 6747348 
2306.469 6759270 6771192 6783113 6795034 6806957 6818878 6830800 6842722 
2321.896 6854643 6866564 6878486 6890408 6902329 6914252 6926173 6938094 
2337.324 6950016 6961938 6973859 6985780 6997704 7009624 7021545 7033467 
2352.752 7045389 7057310 7069231 7081154 7093075 7104996 7116919 7128840 
2368.179 7140761 7152683 7164605 7176526 7188449 7200370 7212291 7224212 
2383.607 7236135 7248056 7259977 7271901 7283821 7295742 7307665 7319586 
2399.035 7331507 7343428 7355350 7367272 7379193 7391116 7403037 7414958 
2414.463 7426880 7438802 7450723 7462646 7474567 7486488 7498409 7528797 
2429.890 7550814 7565461 7577314 7586096 7598155 7609869 7612589 7609308 
2445.318 7610449 7625624 7650101 7676340 7703793 7727203 7738837 7738968 
2460.746 7743352 7756866 7763704 7770008 7788335 7807351 7822750 7838487 
2476.174 7852813 7872863 7905449 7936632 7951940 7959398 7970360 7990337 
2491.601 8017727 8037319 8048276 8066366 8089696 8113570 8142004 8165563 
2507.029 8178328 8192475 8209207 8225818 8255557 8297290 8329449 8347577 
2522.457 8364586 8385335 8412804 8446288 8471184 8479433 8482917 8498376 
2537.885 8526584 8556367 8583240 8608583 8627246 8631996 8630452 8639171 
2553.312 8662418 8687706 8702258 8713493 8735318 8767521 8803686 8837807 
2568.740 8870354 8902465 8934058 8967414 8989897 8993980 8999381 9019233 
2584.168 9045296 9069436 9091453 9112618 9135658 9159766 9175705 9174604 
2599.595 9162679 9156501 9159259 9159999 9156955 9161840 9174003 9183892 
2615.023 9196043 9212696 9227933 9245176 9266970 9280569 9284844 9299397 
2630.451 9321781 9333207 9335560 9338510 9341928 9354947 9388743 9433597 
2645.879 9470319 9488025 9501401 9527627 9565266 9605649 9630859 9640452 
2661.306 9650063 9656796 9659382 9662163 9662106 9664515 9676309 9697181 
2676.734 9723945 9752733 9777908 9795300 9818103 9866124 9937534 10017223 
2692.162 10096657 10166304 10212674 10224500 10213932 10216401 10239841 
2705.661 10260256 10276797 10315600 10373383 10420577 10452861 10484915 
2719.160 10529309 10590979 10649757 10696969 10754218 10824728 10903896 
2732.660 10991896 11071099 11127307 11172101 11215972 11245410 11244950 
2746.159 11226204 11217088 11221429 11225728 11227062 11231598 11256357 
2759.658 11304109 11360055 11418363 11469895 11513243 11567366 11636954 
2773.157 11700774 11751527 11811171 11891863 11982414 12074362 12169241 
2786.657 12270845 12385162 12510939 12638220 12767848 12898366 13031220 
2800.156 13190864 13376486 13556400 13723987 13895176 14075267 14262746 
2813.655 14462927 14680627 14915621 15169105 15439090 15724741 16044842 
2827.155 16431229 16890392 17405730 17983294 18638456 19363784 20143558 
2840.654 20957930 21779526 22570720 23284840 23917912 24541170 25259880 
2854.153 26145298 27211196 28455684 29863054 31372034 32900936 34403480 
2867.652 35902120 37434540 38907848 39990828 40242640 39530372 38222156 
2881.152 36866148 35839388 35241164 34997576 35005776 35173400 35430348 
2894.651 35706308 35929120 36098520 36290392 36583132 37003256 37535400 
2908.150 38163720 38865904 39619844 40422964 41270412 42170312 43152292 
2921.649 44237672 45442336 46760172 48132008 49450152 50576908 51373732 
2935.149 51757628 51789640 51719040 51888156 52587992 53977316 55984992 
2948.648 58280032 60491836 62411280 63890152 64705668 64595700 63388860 
2962.147 61110372 57965780 54299404 50490744 46838216 43549116 40709768 
2975.646 38327560 36391488 34839480 33588000 32563434 31690990 30883718 
2989.146 30067650 29245460 28424758 27566686 26669552 25752658 24810066 
3002.645 23837770 22851258 21909896 21097144 20432666 19845482 19267436 
3016.144 18715164 18248216 17899296 17641566 17411580 17164626 16936202 
3029.644 16776088 16603388 16339473 16044961 15792581 15601765 15455027 
3043.143 15343650 15280759 15248650 15190499 15100880 15062504 15112552 
3056.642 15175398 15202864 15244244 15333797 15437441 15474829 15424059 
3070.141 15366045 15353473 15382978 15466720 15602747 15719777 15752566 
3083.641 15744205 15784965 15892120 16024931 16158216 16285272 16388901 
3097.140 16463964 16564380 16683899 16735639 16752271 16818966 16927438 
3110.639 17050738 17190020 17317992 17344626 17227490 17064194 16935844 
3124.138 16827610 16732365 16652080 16609775 16615357 16585560 16500609 
3137.638 16443492 16434586 16434905 16415882 16386764 16381623 16406392 
3151.137 16434111 16451776 16471550 16493250 16507839 16527677 16561532 
3164.636 16592103 16619082 16660284 16696131 16712891 16750307 16836792 
3178.135 16919312 16932630 16926924 16968556 17015724 17018518 16998396 
3191.635 16980610 16988738 17047922 17092868 17042590 16950038 16886842 
3205.134 16871134 16912308 16965070 16987448 17023902 17062898 17066240 
3218.633 17078868 17085556 17043202 17006024 17032774 17093162 17120880 
3232.133 17107510 17102514 17127992 17151008 17161662 17186376 17218614 
3245.632 17188164 17083920 17002994 17018012 17102500 17155724 17143960 
3259.131 17127344 17134004 17158710 17199486 17244184 17306056 17424172 
3272.630 17586986 17698642 17685888 17617190 17591606 17592346 17563218 
3286.130 17526502 17519600 17519862 17473684 17357708 17231270 17130184 
3299.629 17016738 16897320 16803434 16763179 16796312 16829332 16790820 
3313.128 16712068 16633697 16575371 16549444 16562900 16612010 16663839 
3326.627 16675006 16646923 16623007 16646874 16719128 16753948 16695255 
3340.127 16605851 16539283 16489613 16447745 16408737 16361721 16324821 
3353.626 16330197 16341963 16317859 16303301 16321902 16345188 16358027 
3367.125 16316117 16200781 16084863 16026862 16020770 16044798 16076389 
3380.625 16110995 16175614 16230796 16191001 16135634 16211146 16333474 
3394.124 16332272 16276966 16249420 16223431 16214511 16208683 16192843 
3407.623 16200006 16223444 16246009 16281638 16356897 16549201 16871800 
3421.122 17096070 17063772 16972720 16993692 17100564 17218632 17302804 
3434.622 17382126 17496670 17636670 17825968 18034562 18204468 18305172 
3448.121 18148982 17805068 17583292 17507250 17450830 17383164 17355608 
3461.620 17313852 17153544 16965672 16803644 16599226 16407600 16305472 
3475.119 16229139 16165465 16249183 16382213 16268797 16048518 15961581 
3488.619 15859444 15661880 15560904 15628201 15684393 15688302 15911014 
3502.118 16292003 16256115 15888232 15770552 15791395 15558729 15214311 
3515.617 15049785 15100551 15306577 15695040 16112061 16298927 16296053 
3529.116 16019434 15483792 15100743 15069155 15093552 14958552 15010855 
3542.616 15498570 16091102 16110457 15678336 15445735 15347797 15023258 
3556.115 14721760 14754990 15050413 15478037 16150486 16987034 16712618 
3569.614 15426403 14616764 14410782 14444496 14423360 14348549 14332715 
3583.114 14560379 15234192 15953520 15527114 14826879 14816080 15155064 
3596.613 15286088 15260330 15023895 14534825 14330535 14733671 15366404 
3610.112 15649760 15907258 16124758 16104816 16205674 15894012 14934871 
3623.611 14403893 14703730 15774834 16305813 15371898 14498153 13950709 
3637.111 13686173 13657172 13785785 14029479 14596486 16072638 18030934 
3650.610 16762593 14960049 14335978 14049795 13490830 12960513 12674707 
3664.109 12670949 13107081 14224130 15563053 15697627 15750004 16201556 
3677.608 15457457 14169841 13266392 13007508 13406344 14512438 15835343 
3691.108 15272272 13874754 13039644 12655981 12635818 12919998 13071017 
3704.607 12979278 13205323 14150196 15470637 15094134 13753198 13119219 
3718.106 13137080 13550414 14139785 14601795 14534496 14128815 14179714 
3731.605 15085298 16610363 17351710 16506162 15706788 15529145 15949488 
3745.105 16780174 17473186 18353214 18372328 16321675 14929548 14555362 
3758.604 14404595 13813986 13334960 13373588 13630298 13816641 13603364 
3772.103 12870036 12318745 12314204 12741928 13010906 12923522 12974882 
3785.603 12925851 12510957 12153839 12087792 12383647 13146098 14125127 
3799.102 14943662 15526588 15174748 14588822 14106824 13311183 12756033 
3812.601 12846072 13665268 14915289 15804432 16219117 15572849 14676748 
3826.100 14235814 13937330 13836826 14127140 14719486 15612553 16657555 
3839.600 16661289 15536977 14367794 13560054 13397492 14023297 15493231 
3853.099 17176018 16344658 14786407 14000292 14104587 14883748 15224043 
3866.598 14913748 15063989 15409897 14974827 14097284 13413197 13396555 
3880.097 13996506 14456895 14468125 14103179 13666987 13800780 14183861 
3893.597 13872105 13505325 13842501 14744119 15566230 15768670 14776520 
3907.096 13407652 12621033 12376588 12485246 12924808 13469580 13606392 
3920.595 13510182 13655597 13762103 13519500 13474342 13762958 13770847 
3934.094 13309410 12911317 12829535 13013293 13332176 13462040 13420801 
3947.594 13530371 13566755 13292870 13008018 12919949 12964301 13028215 
3961.093 13030228 12896007 12732963 12720278 12838644 12988494 13114680 
3974.592 13125266 12987646 12850548 12823591 12834035 12805019 12786441 
3988.092 12857427 12969691 13013145 12991729 12914342 12802188 12747163 
##END=
